,cluster_id,curvature,x,y,z,average_potential
0,1,15.14,3.476906666666667,-41.93223428571428,-7.812870476190476,-8.375847619047619
1,2,17.09,10.679972920696324,-41.19482785299806,-8.497926499032882,-7.9021181818181825
2,3,14.9,14.000830985915492,-35.818531690140844,-10.617955985915492,-9.114398767605634
3,4,-13.05,21.03098493408663,-35.11405649717514,-13.68787570621469,-8.979029755178908
4,5,12.79,6.5506093117408914,-10.519024291497974,8.503603238866397,-8.689347773279353
5,6,17.25,-1.7440348525469171,-17.586166219839143,-0.6705683646112599,-13.365510455764074
6,7,12.93,3.6354102564102564,-16.743440705128204,3.1563445512820514,-10.815913782051283
7,8,-13.85,23.810753184713374,-28.813866242038216,12.022918789808918,-11.50810780254777
8,9,-15.45,20.280733333333334,-31.25443611111111,17.149705555555556,-9.333802777777777
9,10,12.27,12.973421991084695,-29.392426448737,18.571481426448738,-7.8494818722139685
10,11,11.78,27.371651085141902,1.5494858096828048,-3.701153589315526,-9.314482470784641
11,12,13.21,33.079357575757584,-11.238968181818182,-1.5201378787878788,-8.682164696969696
12,13,16.36,27.75042006269593,-7.920257053291536,-3.250846394984326,-9.549788087774294
13,14,-14.56,52.875095,-25.24126,-12.8671425,-7.6491275
14,15,12.89,51.56917272727272,-30.65313636363636,-18.006892727272724,-10.347042909090911
15,16,-13.97,54.50530658436214,-22.990104938271603,-5.383742798353909,-10.628932510288065
16,17,-10.54,50.037177441540564,-18.979207702888583,1.1661320495185694,-10.48848734525447
17,18,20.84,35.11855982905983,-12.909692307692307,6.474162393162393,-7.687481196581197
18,19,-13.65,41.97195433070866,-15.205645669291338,-0.2928314960629922,-8.92854346456693
19,20,14.45,25.532081395348833,-30.377093023255814,-6.073862790697674,-9.682873953488372
20,21,20.84,25.936433497536942,-31.82664532019704,5.774305418719213,-9.066670443349754
21,22,18.97,26.487687878787877,-32.35383636363637,0.39581818181818185,-9.18379909090909
22,23,16.16,47.94961563517916,-35.4568013029316,-22.16612377850163,-8.788293811074919
23,24,15.55,38.911019354838714,-43.74820215053764,-31.407064516129033,-7.070168602150538
24,25,-12.31,40.19293779160187,-36.969992223950236,-27.36004976671851,-8.561723172628305
25,26,10.51,45.47530022321429,-23.149881696428572,-34.173691964285716,-9.768383705357142
26,27,14.21,58.55328426395939,-21.5741040609137,-30.91752791878173,-6.70686497461929
27,28,16.19,52.80053246753248,-24.76271753246753,-31.4415,-9.757615259740259
28,29,-18.29,32.00579051383399,-44.282711462450585,-31.948075098814225,-7.724692490118578
29,30,16.17,26.553225988700568,-44.618437853107345,-35.99521468926554,-3.539504802259887
30,31,15.71,23.17446753246753,-22.694599567099566,-34.608787878787886,-8.17887316017316
31,32,13.96,31.664676891615542,-22.019331288343558,-35.792754601226996,-10.744534151329244
32,33,-13.55,37.81197986577182,-23.760304250559283,-32.85648769574944,-9.152492617449665
33,34,-15.21,7.773323529411765,-24.97614705882353,-36.30633529411765,-11.250639117647056
34,35,14.76,15.43407438016529,-20.556381542699725,-33.64582369146005,-10.326262947658401
35,36,11.65,17.846567062818337,-42.67203735144313,-37.7570220713073,-6.4198757215619695
36,37,15.5,12.616281012658229,-36.85735189873418,-37.207101265822786,-13.143420506329115
37,38,-13.49,9.39014606741573,-33.14840449438202,-33.68935814606741,-8.589111938202247
38,39,-14.39,54.871581632653054,10.47262074829932,6.474855442176871,-6.436211904761905
39,40,13.66,51.44295625942685,15.848461538461539,12.888306184012066,-6.879206184012065
40,41,13.5,35.61840053404539,24.052325767690252,19.739443257676903,-9.34915126835781
41,42,13.01,45.026761666666665,21.552521666666664,15.742421666666665,-6.638284666666666
42,43,19.93,60.83275320512821,10.64501923076923,0.7528910256410256,-5.3735214743589745
43,44,-13.29,59.38662020905923,7.949796167247387,-5.143935540069686,-6.24577787456446
44,45,-12.4,58.106970297029704,11.083848184818482,-13.620069306930693,-6.932473597359736
45,46,15.95,53.585655172413794,18.23400907441016,-16.831493647912886,-11.23813284936479
46,47,12.05,29.80201797385621,18.31559477124183,-1.527576797385621,-13.005486437908496
47,48,12.17,28.13349536423841,10.466720529801325,-2.7990397350993375,-9.126290463576158
48,49,16.89,41.45904637681159,27.63238550724638,-17.165002898550725,-11.956699130434783
49,50,-14.78,45.44676447105789,22.17022155688623,-12.746626746506985,-12.484067065868262
50,51,10.64,45.18714776632302,18.352316151202746,-16.412223367697596,-10.968118384879725
51,52,11.53,36.5150098400984,25.616393603936036,-10.292248462484626,-12.791265928659287
52,53,-19.68,25.78787890625,27.332023437500002,-15.305449218750002,-11.704502734375001
53,54,-13.59,32.29772082379863,29.973254004576656,-16.65798627002288,-15.021921624713961
54,55,20.76,34.3838202247191,8.97652808988764,-41.34023595505618,-12.015676404494382
55,56,12.94,35.67927022653721,14.587857605177994,-37.358024271844656,-11.107211812297734
56,57,14.53,41.7948811369509,14.032940568475452,-32.42332299741602,-9.097855297157622
57,58,14.62,45.32847368421053,6.410366541353383,-34.53079887218045,-10.69716447368421
58,59,-14.81,39.80204790419161,0.589877245508982,-42.845377245508985,-15.498515269461079
59,60,-14.48,42.51750450450451,-1.7862297297297298,-50.9742454954955,-9.486670495495497
60,61,17.37,47.159832740213524,2.9810427046263346,-45.65318861209965,-6.680919928825622
61,62,22.26,47.861237837837834,-5.9720594594594605,-37.64326486486486,-8.506375135135135
62,63,14.45,46.31886197916666,0.6259765625,-39.339296875,-9.329364583333334
63,64,-15.41,27.001206106870228,4.0402595419847325,-38.691805343511454,-23.951137404580155
64,65,-8.99,31.548924675324674,1.7634987012987011,-40.94935324675325,-21.369683896103897
65,66,15.17,32.87397773279352,0.5126862348178137,-48.61666801619433,-14.668955465587045
66,67,13.13,29.076656910569106,-2.204806504065041,-44.31363089430894,-17.713168455284553
67,68,14.13,71.85393185185185,9.477385185185184,-30.461826666666667,-9.344887111111111
68,69,-19.57,63.276099547511315,12.07494117647059,-28.007728506787334,-7.524690950226244
69,70,-13.61,67.75146096654275,16.683423791821564,-34.56525650557621,-4.630986059479554
70,71,18.07,68.617392971246,-14.804658146964856,-28.753910543130985,-5.378995207667732
71,72,-13.48,63.744547461368654,-17.89419205298013,-28.544041942604853,-6.8926359823399554
72,73,15.22,73.46115831987075,0.34586914378029077,-26.42250080775444,-10.249918901453958
73,74,-13.81,71.439308,-8.734300000000001,-24.293548,-6.904253733333333
74,75,-19.21,14.807522321428573,3.3043883928571427,-33.75662053571428,-14.739802678571428
75,76,-13.31,18.083000000000002,-3.776665071770335,-31.069255980861247,-15.182647846889951
76,77,-14.28,24.528101321585904,5.503281938325991,-30.84287885462555,-16.20663832599119
77,78,-13.19,25.82522953736655,-4.018964412811388,-33.66825622775801,-16.99474715302491
78,79,14.1,20.338853368560105,0.7185416116248348,-38.709332892998674,-17.788848612945838
79,80,17.23,7.670503685503687,-2.8726019656019655,-15.446373464373462,-15.22233832923833
80,81,18.5,9.004872727272728,4.753072727272727,-11.44979595959596,-14.647318181818182
81,82,19.87,2.2533071017274473,4.294621880998081,-16.501596928982725,-16.746772936660268
82,83,15.45,12.054310104529618,5.2656236933797915,-19.317280487804876,-14.82775418118467
83,84,14.63,7.424373831775701,-1.650285046728972,-24.00258644859813,-16.674310046728973
84,85,16.54,12.395505263157894,6.12194947368421,-27.783084210526315,-14.271317052631579
85,86,12.71,14.466889513108613,0.0020337078651685367,-26.26494756554307,-17.97193052434457
86,87,18.31,8.681732522796352,31.84464741641337,-32.261823708206684,-10.08266170212766
87,88,12.62,10.828647584973167,35.515261180679786,-27.60520214669052,-14.019049910554562
88,89,15.43,9.36778510998308,26.173291032148903,-34.93501184433164,-11.776611675126903
89,90,14.36,3.2812731092436973,22.601189075630256,-32.09144117647059,-11.755827941176472
90,91,-13.06,6.256743243243243,19.98141891891892,-37.11857094594595,-12.434394932432435
91,92,14.84,32.86713310580205,20.760856655290105,-36.380218430034134,-12.316490102389078
92,93,14.71,29.4057653631285,26.680189944134078,-39.89194413407821,-9.100370391061452
93,94,15.37,31.722915951972553,27.698126929674103,-33.48681989708405,-10.35320051457976
94,95,13.16,29.031567073170734,36.50444918699188,-31.555884146341466,-9.277005894308942
95,96,16.96,26.10710107526881,35.07261505376344,-24.080094623655917,-10.910567956989247
96,97,17.5,30.273746323529416,35.1175330882353,-19.69002205882353,-12.067876470588235
97,98,16.31,-1.203012474012474,10.4058316008316,-64.97797713097714,-6.718917463617464
98,99,13.31,3.045896761133603,14.472977732793522,-65.8102085020243,-9.016168421052631
99,100,16.03,8.767461538461538,16.981057692307694,-67.16814423076924,-9.896339743589744
100,101,-13.08,10.41482072368421,24.27134703947368,-65.43002138157895,-7.653380921052633
101,102,-13.01,1.2736655172413793,49.51292413793103,-45.47618793103449,-11.542175344827585
102,103,14.02,-0.6625992779783394,54.62803429602888,-37.08856317689531,-9.61251642599278
103,104,19.14,5.635415384615385,30.413184615384615,-64.06509230769231,-6.837278846153847
104,105,14.01,12.434519266055046,33.14582935779816,-60.57649357798165,-7.535023853211008
105,106,13.81,6.7863210227272734,49.16483522727272,-50.77044886363637,-8.843884090909091
106,107,19.62,11.050830143540669,46.41593301435407,-54.75044258373205,-8.94784019138756
107,108,20.16,13.391028985507244,41.25383333333333,-58.517413043478264,-6.864838768115941
108,109,14.64,6.27233275261324,42.67062543554007,-56.83367421602787,-10.814694599303136
109,110,-14.51,-2.64587969924812,2.9102180451127824,-64.88732080200502,-8.470879949874686
110,111,14.05,-5.668756329113924,-4.101791139240507,-64.21539240506328,-6.415151107594937
111,112,14.06,-5.912923076923076,-12.757076923076923,-62.50972983114447,-5.992428330206378
112,113,14.42,-5.866796728971963,-26.79546261682243,-58.67811214953271,-10.032612149532712
113,114,17.78,-1.5307097902097904,-20.264734265734266,-64.61116433566433,-7.255916433566434
114,115,12.99,-7.5321540404040395,-21.649090909090912,-61.09918181818181,-8.834082323232323
115,116,-14.1,-21.5525625,-25.722191176470588,-38.28272977941177,-10.33270055147059
116,117,16.04,-22.262966887417218,-22.7771821192053,-27.172480132450332,-9.093131456953643
117,118,13.29,-23.750954545454547,-25.01929797979798,-32.46572474747475,-13.376919696969697
118,119,21.23,-18.54731223628692,-32.09640506329114,-41.20753586497891,-10.627580168776372
119,120,-13.02,-16.05711604584527,-29.450120343839544,-45.40475071633238,-9.04795787965616
120,121,14.58,-5.219568322981367,-30.134767080745345,-53.70760869565217,-9.419216459627329
121,122,16.21,-10.4454225,-32.0816675,-51.242754999999995,-8.22721425
122,123,12.64,-48.82795800933126,3.7221399688958012,-29.62338258164852,-8.26431959564541
123,124,15.27,-45.8699068627451,17.609014705882355,-22.93664215686275,-8.30549093137255
124,125,17.02,-48.33183695652174,12.968192934782609,-28.54861956521739,-8.72866929347826
125,126,19.36,-44.61271875,-1.9270625,-27.150035714285714,-8.690307142857142
126,127,-10.93,-42.36439086294416,-7.880507614213198,-24.884517766497463,-10.29318730964467
127,128,17.67,-35.03214014251781,-3.6953942992874107,-20.517933491686463,-10.594634204275536
128,129,12.31,-28.108457413249216,-1.4265946372239748,-25.560484227129336,-7.902231545741326
129,130,-10.87,-2.620681818181818,16.724095693779905,-38.597818181818184,-13.204861363636361
130,131,-23.84,-5.61510843373494,12.54528313253012,-32.90140963855422,-7.004198795180724
131,132,16.6,-11.91352923076923,12.755378461538463,-38.73914461538462,-6.080466153846155
132,133,15.14,-23.85172327044025,5.639138364779874,-24.51084486373166,-10.323287631027254
133,134,-15.09,-18.5782005730659,9.730916905444127,-23.363363896848142,-9.61624212034384
134,135,-14.44,-21.65436559139785,9.936554838709677,-32.66011612903226,-8.859459569892472
135,136,12.91,-13.928425742574259,11.909379066478078,-31.345285714285712,-7.841563649222064
136,137,-12.82,-42.054118577075094,23.343938735177865,-23.696737154150195,-6.933487944664032
137,138,12.52,-38.68303276131045,30.888262090483614,-25.874263650546027,-7.279453198127925
138,139,-14.89,-15.735801630434782,40.48053804347826,-10.232875,-9.833452445652174
139,140,12.93,-19.61862156862745,43.463049019607844,-16.85991176470588,-8.104187843137256
140,141,13.94,-32.817794411177644,38.62943113772455,-28.096423153692616,-7.066275848303394
141,142,-17.69,-22.801809523809524,43.15277655677655,-24.410501831501836,-6.790527838827839
142,143,16.39,-29.544156316916485,42.98488222698073,-23.3087408993576,-7.717322483940043
143,144,-13.08,-9.047400667779632,62.48353088480802,5.383829716193657,-7.197192487479132
144,145,-16.19,-11.01646875,65.35185511363636,11.622079545454545,-11.240011079545456
145,146,12.69,-14.972112377850163,66.58155048859935,16.940581433224754,-5.318560912052116
146,147,14.86,-12.86282217090069,25.989632794457272,24.872812933025404,-11.048630023094688
147,148,18.86,-15.68908849557522,26.49188790560472,13.91266371681416,-9.567741887905605
148,149,14.25,-17.507584415584414,28.13758225108225,19.241372294372294,-11.185619696969695
149,150,11.38,-12.399188023952096,33.28383113772455,-5.435995209580838,-6.426001796407185
150,151,12.03,-12.050447339847992,29.114023887079263,5.749336590662323,-6.220352225841477
151,152,14.23,-4.105440633245383,63.358469656992085,-1.2755171503957783,-10.504524538258574
152,153,-13.18,-2.597127572016461,62.74441769547325,-9.159553497942387,-10.35777839506173
153,154,15.21,-1.4747211740041928,57.867545073375254,-26.963731656184486,-8.941477568134173
154,155,11.94,-2.2147809076682314,59.27734585289515,-17.82658372456964,-8.911203755868545
155,156,11.69,11.44161080074488,38.24249720670391,-19.874882681564245,-11.40380242085661
156,157,12.34,16.280461738002597,35.87920492866407,-14.074841763942933,-10.223796368352788
157,158,19.69,22.487882096069864,28.43973799126638,6.7115327510917036,-8.59308558951965
158,159,13.7,27.384370165745857,25.133942909760588,1.4565801104972373,-9.593827992633518
159,160,12.95,18.098053859964093,36.9615368043088,-5.837491921005387,-7.574684560143626
160,161,13.16,23.77981430536451,33.6607317744154,0.021712517193947685,-9.69719711141678
161,162,-12.01,6.913326465927098,5.7077337559429475,24.097954041204435,-11.87889033280507
162,163,12.87,4.2230622222222225,11.270099259259258,27.773336296296296,-9.22719837037037
163,164,12.05,0.958377819548872,17.050056390977446,24.913163533834584,-10.973395864661654
164,165,16.19,22.414964467005074,30.084725888324876,25.62322842639594,-5.656670812182741
165,166,13.2,26.943693693693692,25.489949549549547,22.07321261261261,-7.862503603603605
166,167,14.0,14.56263476070529,30.46263476070529,24.302390428211584,-7.205923929471033
167,168,13.81,3.7879514824797846,22.83791374663073,25.491485175202158,-8.891444204851753
168,169,-14.9,8.312146953405017,27.527998207885304,27.183059139784948,-10.329779928315412
169,170,13.42,-14.07453317535545,6.120952606635071,10.489028436018955,-17.39631018957346
170,171,13.08,-17.551120982986767,-1.5892967863894136,6.00520415879017,-13.587820604914933
171,172,15.18,-13.653195571955719,3.8746199261992618,1.168110701107011,-19.02131033210332
172,173,11.48,-9.38543879472693,1.4390207156308854,5.823903954802261,-18.301759133709982
173,174,13.98,-6.204850543478261,7.590182065217392,-0.05934510869565218,-14.74124945652174
174,175,11.4,-5.603006568144499,0.04803119868637106,-1.3061149425287355,-18.527616912972086
175,176,12.1,0.1971643410852713,-1.1903364341085272,-7.160781395348836,-17.176380775193795
176,177,15.39,-5.384857142857143,4.3380616246498604,-11.113843137254904,-17.253920168067225
177,178,-16.22,0.8710511182108627,7.374517571884983,-7.047031948881789,-14.927693290734826
178,179,-13.41,-12.684090733590734,-1.5374208494208494,35.45952895752896,-8.895598262548262
179,180,17.23,-7.067733128834356,-14.736220858895704,33.92117791411043,-12.530902760736197
180,181,17.75,-10.345658536585367,-7.592008130081302,36.54945528455284,-8.00603536585366
181,182,-12.56,-9.120376543209876,-8.530822530864198,29.979294753086425,-9.630867901234566
182,183,15.15,4.02913785046729,-1.4803855140186917,19.85856074766355,-12.211879205607476
183,184,-12.85,9.449635359116023,-5.262060773480663,16.1024364640884,-7.644359392265193
184,185,13.62,1.7991860940695295,-5.541065439672802,14.104480572597138,-10.088641104294478
185,186,-11.93,5.040555078683834,-27.291204577968532,23.79605722460658,-11.99655608011445
186,187,12.44,-0.016929356357927784,-21.051467817896388,28.16274568288854,-9.092263579277864
187,188,-18.77,-6.634626470588236,-21.62408823529412,24.37961176470588,-7.068597058823529
188,189,11.86,-10.143667272727273,-17.45592727272727,28.242292727272726,-11.816358545454545
189,190,13.56,-47.31582625482625,-13.106262548262547,30.23590990990991,-15.38556048906049
190,191,-20.56,-41.77907894736842,-11.01865037593985,25.711488721804514,-11.865881203007516
191,192,-9.93,-39.18638053097345,-14.940790560471976,31.98534808259587,-13.011789380530974
192,193,11.43,-41.32886372360844,2.9875009596928983,35.99973896353167,-13.813662380038387
193,194,-9.74,-43.25989154929577,-4.459035211267605,35.579974647887326,-16.93594887323944
194,195,20.45,-36.61974193548387,-11.375725806451614,42.74372043010753,-10.367877956989249
195,196,12.29,-41.86136096718481,-10.134773747841106,39.540058721934365,-14.98382158894646
196,197,17.4,-22.22345898004435,22.191789356984483,28.083281596452327,-9.959543237250553
197,198,-13.08,-16.205784911717494,18.606590690208666,30.40683146067416,-12.207103691813806
198,199,12.43,-14.632343419062027,5.942989409984872,34.68580181543117,-11.475755673222391
199,200,20.13,-20.781965217391306,12.094895652173912,34.536152173913045,-11.014514347826086
200,201,-17.88,-13.514528301886793,13.415784905660377,32.91136226415094,-11.185161886792454
201,202,14.49,-29.690986945169712,5.105932114882505,32.263007832898175,-15.415488772845952
202,203,16.04,-36.531380614657216,2.3261796690307333,29.456130023640664,-16.12559621749409
203,204,-9.49,-31.475999999999996,3.3664614343707706,25.800037889039242,-16.21075845737483
204,205,14.64,-20.919378109452737,3.542676616915423,9.924572139303482,-13.941431343283579
205,206,-12.69,-18.3323007518797,0.675562030075188,16.1091484962406,-15.744240601503758
206,207,15.95,-23.844768729641693,-0.8491205211726385,26.197791530944624,-12.057248208469055
207,208,-5.11,-21.022919708029196,1.5457591240875912,21.46130291970803,-18.57625620437956
208,209,7.8,-23.592897350993375,6.818536423841059,18.987453642384107,-18.06750562913907
209,210,14.88,-26.70433793103448,1.6889965517241383,13.300310344827585,-12.431892068965517
210,211,16.87,-28.1560390070922,-0.05311347517730494,19.648677304964536,-13.388988652482269
211,212,12.77,-36.8324304347826,-34.537623913043475,15.903097826086954,-5.846972826086957
212,213,-16.16,-27.92221293800539,-36.84940161725068,9.366245283018868,-10.39731078167116
213,214,-12.54,-33.668621753246754,-40.36474025974025,11.475001623376622,-8.046971103896103
214,215,11.54,-40.329136085626914,-18.779703363914372,23.308996941896027,-10.214625993883791
215,216,14.76,-38.343337028824834,-29.26720399113082,18.690818181818184,-9.134491352549889
216,217,-12.93,-38.38574734042553,-24.584731382978724,21.33852925531915,-6.498559840425531
217,218,-13.78,-17.041654088050315,-18.6295178197065,-16.58733752620545,-7.477315513626835
218,219,-14.18,-22.447409502262445,-21.37603393665158,-20.695798642533937,-6.58360407239819
219,220,11.99,-10.825768566493954,-16.29032469775475,-12.526889464594127,-9.588643177892918
220,221,-20.88,-3.7504888888888894,-11.520604444444443,-7.779199999999999,-11.896288
221,222,14.56,-7.005880813953489,-18.575829941860466,-5.728726744186047,-10.208805523255814
222,223,19.42,-1.7795637065637067,-44.812490347490346,6.031722007722008,-9.025123166023166
223,224,15.8,1.9604005167958656,-42.906315245478034,-0.313767441860465,-11.903043927648577
224,225,-13.91,-2.3765404411764703,-38.64405514705883,1.406610294117647,-8.622970220588236
225,226,-15.84,-4.229469101123595,-36.50134269662921,6.115134831460675,-7.20273595505618
226,227,-10.64,-21.956519851116628,-40.83030024813896,8.592800248138959,-9.157596029776675
227,228,-12.02,-15.492176829268292,-36.01247764227643,10.258581300813008,-9.405094105691058
228,229,12.44,-9.11886255259467,-39.678269284712485,9.074019635343618,-10.542814866760168
