,cluster_id,curvature,x,y,z,average_potential
0,1,10.4,32.249641881638844,11.544578148710167,-59.02239453717755,-15.163044309559938
1,2,-11.54,38.01844513457557,13.684012422360247,-64.97834161490684,-15.073566873706005
2,3,18.89,44.12520000000001,17.663273846153846,-61.22485846153847,-15.459530461538463
3,4,13.83,38.96405329153605,14.452385579937303,-58.06521943573668,-19.390069278996865
4,5,16.75,49.02003087885985,5.116501187648455,-55.64587410926366,-16.181390736342042
5,6,12.8,45.08928689655173,5.888197241379309,-49.71283034482758,-20.290645793103447
6,7,19.14,53.13554816513762,12.165339449541284,-51.68111697247706,-13.262645642201836
7,8,-15.3,46.094774535809016,9.929206896551724,-45.773374005305044,-15.215666843501324
8,9,20.61,55.41124561403508,10.168451754385966,-45.09880701754386,-11.525206578947367
9,10,12.83,50.273839009287926,4.866823529411765,-47.28793498452013,-16.623128173374614
10,11,14.83,47.755352941176476,-6.344007352941176,-65.08668627450982,-12.062921568627452
11,12,-14.18,46.18111346153845,-8.465615384615385,-58.54781153846154,-13.748757307692308
12,13,-13.51,39.32887131367292,-1.8818445040214478,-50.189906166219835,-21.83774423592493
13,14,15.19,40.898548974943054,-7.969808656036447,-51.00348063781322,-20.94832528473804
14,15,17.41,49.88581449275363,-2.660785507246377,-48.250437681159426,-17.552782028985508
15,16,-14.33,44.51115604395605,-0.813389010989011,-56.01083516483516,-20.066494725274723
16,17,11.93,53.040006051437224,-11.809220877458397,-70.93308925869894,-7.998191376701967
17,18,15.61,60.3173925925926,-8.099666666666666,-77.32005679012346,-7.934034320987654
18,19,16.11,61.77172275334608,-1.440282982791587,-79.74324091778202,-7.414687189292542
19,20,12.54,44.184138317757004,14.550097196261682,-68.96479065420561,-16.587004112149533
20,21,15.76,39.77757412398922,8.96189757412399,-74.33155795148248,-13.310352560646901
21,22,18.41,48.831139465875374,15.511780415430264,-73.24947477744807,-11.725562017804155
22,23,16.67,41.919973372781065,16.64962426035503,-77.62650295857989,-12.620469822485209
23,24,-16.31,57.02586377708978,6.366157894736843,-80.09921362229103,-8.439414860681115
24,25,-13.4,49.984352024922124,8.501632398753893,-77.77304984423675,-15.17064859813084
25,26,14.8,46.34393309859155,12.00287676056338,-81.24665316901408,-12.408979225352113
26,27,-13.49,28.589000000000002,-6.736962703962704,-39.91950116550117,-17.11124079254079
27,28,17.56,24.366830578512392,-9.674698347107439,-45.37542975206612,-17.93804049586777
28,29,-15.48,22.794797843665766,-2.960045822102426,-43.083668463611865,-16.33000296495957
29,30,-10.43,36.55499494949495,-6.574075757575758,-42.033468013468024,-14.73276127946128
30,31,15.51,30.750868894601542,-9.562570694087404,-49.12184061696658,-14.232858868894601
31,32,13.5,32.41732874015748,-4.19809842519685,-48.65877362204724,-18.062435236220477
32,33,12.1,25.888135135135133,15.262147147147147,-41.41834234234234,-14.50842972972973
33,34,11.49,30.223213963963964,9.046761261261262,-39.35996846846847,-17.705734684684682
34,35,-15.49,22.204887029288706,9.705351464435145,-37.89637238493724,-14.080724267782426
35,36,15.93,28.030275268817203,12.91991612903226,-33.8640064516129,-19.07668731182796
36,37,13.73,31.429508571428567,9.139251428571429,-45.58734285714286,-17.933613714285713
37,38,15.46,36.90275355450237,14.930883886255923,-50.61109241706161,-17.64066990521327
38,39,12.03,29.207907216494846,16.35335738831615,-47.25617869415807,-14.775928178694159
39,40,-16.37,30.146006349206345,13.232926984126982,-52.471758730158726,-17.787323492063493
40,41,14.73,20.79744502617801,-12.447091623036648,-41.14029057591623,-13.733764659685864
41,42,7.43,18.981641860465114,-5.809009302325581,-37.08722325581395,-17.059094418604648
42,43,11.32,14.343609271523178,-8.151996688741722,-42.59004801324504,-11.664072516556292
43,44,-13.63,5.097035256410257,-12.481051282051281,-35.04750641025641,-11.693502884615382
44,45,-10.71,13.06090072639225,-11.764510895883777,-35.812089588377724,-9.87764430992736
45,46,-10.2,7.342633838383838,-3.152960858585859,-30.029801767676773,-13.86205176767677
46,47,-14.43,11.892707224334602,-2.962326996197719,-37.13585171102662,-14.416953992395436
47,48,10.4,5.878332247557004,-5.956527687296417,-39.73576872964169,-17.642770684039085
48,49,-21.67,6.526405982905983,2.567764957264957,-13.267957264957266,-11.063184188034189
49,50,20.03,12.608591240875914,6.563995133819952,-10.19807299270073,-11.900715815085158
50,51,20.37,14.397365168539327,12.355811797752809,-17.729640449438197,-14.234908988764044
51,52,19.59,17.07218789808917,3.337869426751592,-14.747070063694267,-17.082127707006368
52,53,-14.91,10.271325301204818,5.508812048192771,-17.531431325301206,-14.20638674698795
53,54,13.84,20.89605325443787,13.224363905325443,-30.219482248520713,-17.27661804733728
54,55,14.93,24.134796714579053,6.972246406570842,-28.54405954825462,-20.310631622176594
55,56,11.1,17.198212678936603,2.8458527607361965,-21.764132924335378,-16.63501492842536
56,57,-11.95,17.022873786407768,7.543067961165048,-30.018757281553395,-14.252740776699028
57,58,12.48,16.918709327548804,10.417459869848157,-24.026893709327553,-18.061719305856833
58,59,13.73,-96.0733873873874,9.648566066066065,82.87357807807808,-10.813881831831832
59,60,13.43,-84.4557422037422,6.714519750519751,74.78075467775466,-16.067709147609147
60,61,-11.35,-82.16447537473233,8.152244111349036,70.1487687366167,-14.034013490364027
61,62,18.89,-90.8495023923445,3.714095693779904,72.16156459330145,-7.5588688995215305
62,63,-10.66,-90.8734108040201,8.952390703517588,77.59288442211056,-10.63668216080402
63,64,-10.52,-59.75211680327869,0.1348975409836066,46.29862090163934,-13.465973770491802
64,65,-10.6,-66.32051973684212,-0.4867828947368422,50.76160855263158,-13.517310197368422
65,66,11.43,-60.387540697674424,-3.347445736434109,53.78520736434108,-12.749562790697675
66,67,14.24,-50.63861340206186,0.5660773195876289,43.74573195876289,-12.951835051546391
67,68,-11.59,-54.868717339667455,-5.738045130641329,45.20444418052257,-19.082545130641332
68,69,13.75,-52.10184474885845,-1.6567762557077623,51.60329452054795,-12.961699771689497
69,70,-15.6,-77.63350988142292,0.006901185770750969,61.00893675889328,-13.308526877470355
70,71,14.53,-79.85712459016393,1.350498360655738,67.64106885245901,-16.61808918032787
71,72,11.61,-77.40017324185249,7.641797598627787,65.18769982847341,-16.351169639794165
72,73,-14.94,-70.7790183150183,5.117315018315018,59.87295238095238,-16.9679293040293
73,74,11.92,-70.35580113636364,0.07729356060606067,64.47180303030302,-11.37366875
74,75,-11.45,-71.55164508928571,-0.9843080357142858,55.88433928571429,-17.39327700892857
75,76,-11.24,-63.45178093306288,0.05725760649087217,59.07763286004057,-11.944856795131845
76,77,-12.27,-26.70228125,-1.2442708333333334,18.617375,-15.284052083333332
77,78,12.61,-22.93476127819549,-6.929892857142858,22.688449248120303,-20.670244736842104
78,79,-12.14,-29.666374321880653,-1.324269439421338,26.110518987341774,-16.469939421338157
79,80,12.44,-30.73365454545455,-8.88016727272727,26.85351272727273,-16.803273090909094
80,81,-12.75,-41.615557659208264,-4.062703958691912,43.45465404475043,-15.052270740103268
81,82,-14.45,-44.972923076923074,-8.765766025641025,34.852865384615384,-10.185713782051282
82,83,13.5,-48.38735758835759,-5.833950103950104,39.853561330561334,-13.378806237006236
83,84,-0.62,-44.749804347826085,-0.01614130434782604,36.329271739130434,-14.084710869565217
84,85,19.98,-36.882803347280344,-0.7784142259414226,38.68482426778244,-13.582511297071129
85,86,13.6,-40.34595598591549,-6.657577464788732,32.58642605633803,-13.058528873239435
86,87,-15.67,-35.00431197771588,-0.325974930362117,32.37932033426184,-16.268434261838443
87,88,-11.91,-36.254040214477214,-5.988466487935656,29.404908847184984,-15.164336997319035
88,89,13.7,-10.231407335907337,-0.8677393822393822,5.950797297297298,-17.17021640926641
89,90,10.87,-5.879196428571428,-0.024964285714285543,3.823808928571428,-13.211757678571429
90,91,-14.03,-19.31474193548387,-4.975829032258065,17.009341935483874,-15.377686129032258
91,92,13.15,-15.183059496567504,1.2800320366132725,18.82287643020595,-18.036871395881008
92,93,16.54,-10.506066326530611,0.9653750000000001,12.717374999999999,-17.210343112244896
93,94,-10.95,-16.289701399688955,-3.3874245723172622,11.201393468118196,-14.311156609642303
94,95,14.37,-31.18882912332838,5.937578008915304,-5.350609212481427,-11.686164041604755
95,96,-12.31,-35.414675384615386,-1.1836323076923077,-4.282855384615385,-11.378185692307692
96,97,-11.18,-22.866232067510552,14.810450070323487,-4.64751617440225,-15.50184022503516
97,98,-15.67,-22.811821428571427,12.321406249999999,-10.811526785714287,-9.691783482142856
98,99,13.19,-28.591937304075234,13.306137931034481,-7.939495297805643,-9.461474921630094
99,100,16.6,-32.63220414201183,15.414011834319526,5.6319822485207105,-6.440572781065089
100,101,12.03,-30.066162295081966,12.197278688524591,-0.34039016393442617,-12.926595081967212
101,102,15.1,-24.590431654676262,-10.413211031175061,-29.9854412470024,-10.785741726618705
102,103,-15.45,-27.144522788203755,-17.729203753351204,-28.451621983914208,-12.889101340482574
103,104,14.64,-32.55770669745959,-13.739193995381061,-25.92381986143187,-6.934238106235566
104,105,19.04,-37.08256956521738,-8.994204347826086,-6.111647826086957,-8.796226956521739
105,106,12.3,-37.29904317789292,-13.625319516407599,-9.752649395509499,-9.489847668393782
106,107,17.5,-40.036463840399,-15.004369077306734,-17.229259351620946,-12.697356359102244
107,108,-14.63,-33.92763661971831,-16.004459154929577,-20.369552112676057,-11.522096901408451
108,109,-14.36,-18.306592592592594,-11.857585185185185,-32.141846913580245,-7.449415555555555
109,110,13.68,-13.300397333333331,-10.003570666666667,-34.38417333333334,-10.182594933333334
110,111,13.54,-6.330928452579036,-8.27038935108153,-32.72514975041597,-11.14297387687188
111,112,-11.55,0.8225376106194691,-7.427705752212389,-32.11393141592921,-13.822762389380532
112,113,-19.27,-8.621135802469137,17.826115226337453,-11.15646913580247,-14.288289711934157
113,114,-17.21,-14.656518394648833,14.972859531772576,-5.295010033444815,-11.671412040133779
114,115,18.55,-18.104719298245616,22.643307017543858,-8.001312865497075,-13.955739181286546
115,116,12.69,-13.37915844155844,21.98052207792208,-14.651906493506495,-12.384486233766236
116,117,-15.79,-17.855334134615383,16.730853365384615,-13.546579326923077,-11.690989182692308
117,118,23.07,4.965161870503597,8.370312949640288,-8.431370503597122,-16.609547122302157
118,119,-10.54,4.165172473867596,1.889012195121951,-6.72609756097561,-16.557968292682926
119,120,14.0,1.5088977272727275,7.969212121212123,-1.0540549242424244,-13.693814015151515
120,121,-16.79,-5.831691460055097,3.212523415977962,-1.4551074380165288,-13.107989531680442
121,122,10.29,-0.6252219730941704,-1.6894349775784754,-1.8542399103139013,-13.002945964125562
