,cluster_id,curvature,x,y,z,average_potential
0,1,-11.96,51.09993715846994,43.7180806010929,13.08657650273224,-12.282929508196721
1,2,13.65,46.465910020449904,36.56932106339468,15.696032719836401,-15.149452965235175
2,3,-18.03,39.0004279835391,37.56043209876544,11.998884773662553,-10.617705761316872
3,4,14.93,42.49922505800464,30.417399071925757,15.107336426914154,-14.776076798143853
4,5,-16.86,37.65179060665362,20.385657534246576,9.491526418786695,-11.616793542074365
5,6,-19.98,40.11912455516014,27.65159074733096,8.777391459074734,-15.377728113879003
6,7,15.5,35.978684039087945,26.983749185667754,15.125208469055375,-11.99983648208469
7,8,20.97,30.352903361344534,17.703365546218496,18.108180672268904,-10.524716386554624
8,9,18.14,28.79382572614108,27.281385892116184,11.682701244813277,-11.701335269709544
9,10,12.37,28.525751313485117,19.845577933450087,8.814943957968477,-13.292713134851137
10,11,10.63,33.962502127659576,30.14927234042553,-5.323423404255319,-9.724615744680852
11,12,12.19,31.071241379310344,35.96825637181409,-1.3743778110944525,-13.273786806596704
12,13,16.51,44.249122388059696,34.64179402985075,-3.094928358208955,-8.259518208955225
13,14,12.69,42.13368535262206,27.294249547920437,-5.495030741410488,-8.233569801084991
14,15,14.24,56.515513513513504,34.161479374110954,-21.366752489331436,-12.101870981507822
15,16,-15.52,53.42192972972973,18.762148648648648,-26.212351351351355,-9.774475945945944
16,17,-14.29,54.70644285714286,26.26795,-25.316682142857143,-12.499802857142859
17,18,18.11,51.40288065843622,20.78432510288066,-8.139860082304526,-8.024584362139917
18,19,17.12,59.591743386243394,24.887587301587303,-4.551243386243386,-6.295082804232805
19,20,17.27,55.36746014492754,25.0911231884058,2.578949275362319,-4.70626847826087
20,21,-17.54,46.93752755905513,27.434960629921257,1.491377952755906,-7.5416295275590555
21,22,13.25,51.11884552845529,27.060908536585366,-4.613520325203252,-9.075128455284553
22,23,-16.47,54.60630903790087,46.01144897959184,4.683521865889213,-14.008157142857142
23,24,14.13,56.917953367875654,47.16445595854922,-1.4186614853195165,-11.467394127806562
24,25,15.57,58.26896507936509,44.595822222222225,-8.059536507936508,-9.894833650793652
25,26,12.86,58.01841047297298,40.342353040540544,-13.85783445945946,-13.14848429054054
26,27,10.95,7.019124223602486,44.52220031055901,-27.427330745341617,-10.604350931677018
27,28,-11.33,10.236276119402985,38.21528855721393,-29.48560199004975,-15.733384825870647
28,29,12.49,7.919450479233227,43.261939297124606,-34.52376996805111,-8.650778274760382
29,30,13.4,7.945153284671532,33.2827299270073,-32.535447080291966,-11.087187226277372
30,31,14.51,-0.36991578947368425,36.83080842105263,-32.54449263157895,-12.932478736842107
31,32,-11.78,-0.16298426966292137,30.496777528089893,-37.12768988764045,-9.37867011235955
32,33,-10.65,21.21645320855615,42.86883556149733,-5.005478609625668,-15.821517112299466
33,34,16.4,27.086752542372885,46.70043220338983,-12.292730508474579,-11.13552779661017
34,35,16.5,28.88627807486631,44.21043315508021,-4.448877005347593,-10.32056844919786
35,36,-10.57,27.760674846625765,38.03326380368098,-10.08467689161554,-10.159871165644173
36,37,-18.26,24.21117344173442,42.78182384823848,-17.292523035230353,-11.439325203252032
37,38,-17.27,17.393096330275228,42.698435779816506,-11.58506880733945,-19.014992201834865
38,39,-11.46,16.255190569744595,47.45184086444008,-14.863328094302554,-13.085200589390961
39,40,-15.5,15.881603896103895,38.114766233766225,-17.463149350649353,-15.434953246753246
40,41,17.6,15.91795108695652,46.40236956521739,-23.34623641304348,-14.369639945652175
41,42,14.47,15.291214559386976,36.61368199233716,-24.681022988505745,-13.22822183908046
42,43,15.12,8.374664893617021,42.164255319148936,-20.21275,-15.209888563829788
43,44,-14.72,43.66535279187818,-12.772578680203047,-13.32673350253807,-10.922846446700508
44,45,13.91,40.14045734597157,-17.577094786729855,-10.859109004739336,-7.484826540284361
45,46,-17.88,49.56944814814815,5.276518518518519,-23.127555555555553,-8.352939259259259
46,47,11.54,51.39341788856305,9.10591788856305,-26.914036656891493,-6.237080058651027
47,48,-14.71,47.354048469387756,-0.8858443877551021,-21.81414285714286,-10.226338520408163
48,49,-13.56,47.01986270871985,-6.299862708719852,-17.79925231910946,-10.58965120593692
49,50,16.98,23.622200000000003,21.067792307692308,-18.278673076923077,-8.386599999999998
50,51,13.1,22.95165217391304,14.221098228663445,-21.490961352657003,-15.683869243156197
51,52,10.21,13.4745511627907,11.84953023255814,-24.256913953488375,-24.04034534883721
52,53,6.33,19.78475081967213,5.018386885245902,-24.168560655737704,-20.472175409836066
53,54,9.1,21.22697505197505,4.701155925155925,-15.480422037422036,-25.901663617463615
54,55,-8.23,14.995176842105261,12.491856842105264,-12.575656842105262,-35.64983936842105
55,56,11.84,13.183369892473118,-0.4401548387096774,-26.55702795698925,-25.94629827956989
56,57,15.62,5.674920110192838,0.5696584022038568,-25.599573002754823,-37.53402947658402
57,58,17.59,6.609791176470587,6.815276470588235,-22.433582352941176,-44.03775735294118
58,59,-11.97,5.888274891774891,-12.991670995670995,-18.222179653679657,-28.571345021645023
59,60,-20.46,11.08169798657718,-7.1915771812080544,-14.174879194630874,-57.15464026845636
60,61,21.67,9.812160409556313,-7.449901023890785,-21.83775085324232,-28.959068941979524
61,62,15.71,20.518675213675216,-8.491381766381766,-22.445094017094014,-19.34258888888889
62,63,13.55,18.548490530303027,-4.489125,-15.099267045454546,-32.877053787878786
63,64,15.44,-50.936815964523284,32.102521064301555,-10.650594235033259,-11.636488248337027
64,65,24.81,-48.48638095238095,37.75942857142858,-3.037815476190476,-4.085774404761905
65,66,11.6,-46.08897575757575,30.459492424242423,-3.9784954545454547,-8.064850757575757
66,67,11.06,-44.522864013267,24.302892205638475,-18.98523880597015,-11.314989552238806
67,68,16.16,-42.034696517412925,31.87125373134328,-17.052273631840794,-16.907778606965174
68,69,14.03,-49.23065162454874,29.47783393501805,-16.902684115523464,-13.700772743682311
69,70,-12.12,-40.3712745825603,28.292230055658628,-25.150000000000002,-15.149028756957327
70,71,-15.02,-39.39134782608696,19.330059782608693,-21.426739130434783,-13.378512500000001
71,72,-15.41,-35.36523529411765,26.222527731092438,-18.330228571428574,-16.5463981512605
72,73,14.1,-23.284411131059244,33.27876301615799,10.338438061041293,-11.735525673249551
73,74,-18.21,-14.633592715231789,31.394321192052978,5.901923841059603,-14.711922847682121
74,75,-15.29,-16.364415841584158,37.136693069306936,10.662864686468646,-14.7229801980198
75,76,11.43,-38.50791246290801,33.784709198813054,3.0263056379821958,-10.823265875370922
76,77,24.03,-24.318235955056185,39.10873033707865,5.475573033707866,-14.129493258426965
77,78,-11.11,-30.743576811594203,35.65671884057971,6.5880782608695645,-10.403827246376812
78,79,15.4,-11.903610315186247,31.245965616045847,-18.160627507163323,-14.00619799426934
79,80,13.62,-6.795124248496995,27.029847695390778,-18.547829659318637,-15.772714629258516
80,81,15.42,-9.887742990654205,26.0153761682243,-10.343042056074767,-21.054746495327098
81,82,-13.97,-10.581331828442439,19.838033860045147,-11.664198645598194,-34.75041354401806
82,83,-16.5,-21.924803970223326,25.56148635235732,-6.202719602977667,-18.667759057071958
83,84,-11.79,-20.951324225865207,20.32371766848816,-11.881786885245901,-22.06624298724954
84,85,16.18,-18.090880222841225,34.51208077994429,-4.54491643454039,-12.090731754874653
85,86,-11.36,-24.337314062500003,34.5752015625,-9.11561875,-11.54256484375
86,87,11.95,-10.11625543478261,39.18033695652174,-18.817072010869566,-10.21935733695652
87,88,21.93,-16.925648401826482,43.12072602739727,-12.691347031963469,-5.638894520547945
88,89,14.97,-18.857445544554455,37.02985148514852,-15.970363861386138,-12.102374009900991
89,90,-15.58,4.5704400000000005,32.03098000000001,17.38240769230769,-12.380094615384616
90,91,-15.19,13.454741324921136,31.04644794952682,13.420318611987382,-9.760308517350156
91,92,16.32,11.927051813471502,24.76268134715026,17.72229274611399,-17.670145077720207
92,93,-12.45,-7.603771641791045,38.73189850746269,9.600026865671643,-10.92093985074627
93,94,-14.67,-3.5876202898550718,35.69528985507247,14.208504347826088,-15.8359715942029
94,95,13.27,2.0973944315545245,36.6681090487239,10.732777262180972,-13.814890719257539
95,96,-13.88,13.6425390625,2.4997643229166666,13.868345052083333,-41.724488802083336
96,97,15.79,8.8131123853211,2.8262866972477063,23.537919724770646,-24.198708944954127
97,98,-22.91,4.529284518828453,-0.06620502092050207,17.49591631799163,-53.58339246861924
98,99,16.01,0.9002335025380711,5.59374111675127,20.405621827411167,-60.66111446700507
99,100,14.47,2.798838181818182,11.22468909090909,6.398969090909091,-176.78639490909094
100,101,8.8,4.402695,16.90531,12.328385,-41.095613
101,102,12.08,1.3595057471264371,18.839124137931034,7.205622988505747,-43.280479310344816
102,103,20.54,13.82640828402367,11.042215976331361,19.335689349112425,-28.982188757396454
103,104,-16.22,7.765111814345992,15.753345991561181,20.531837552742616,-26.68194894514768
104,105,10.32,11.001111111111111,11.888026455026456,10.400970899470899,-66.75464444444445
105,106,17.08,13.92134090909091,19.20294834710744,12.761993801652892,-25.052081404958678
106,107,-12.56,20.33510934393638,9.133312127236582,15.544980119284293,-23.819512524850893
107,108,16.72,23.33262195121951,15.790536585365851,13.760963414634144,-18.627316768292683
108,109,15.94,23.593650334075722,10.979035634743877,8.978541202672606,-21.82621224944321
109,110,17.46,15.370758974358976,9.78003076923077,-5.915169230769231,-38.24554666666667
110,111,12.92,20.256284507042253,4.174357746478873,-4.713619718309859,-27.599281126760566
111,112,11.88,13.143552044609665,4.546289962825279,6.064970260223048,-61.24443531598512
112,113,14.95,17.72305524861878,8.007044198895027,1.4089419889502761,-39.915206906077344
113,114,10.3,12.766564981949458,11.489339350180506,1.4920198555956679,-60.83368754512635
114,115,-16.63,-0.28461988304093566,-12.251505847953215,1.8290409356725144,-70.45930467836257
115,116,-13.38,-0.7345575539568345,-13.115841726618708,-5.280489208633094,-55.19997410071942
116,117,-1.82,-8.317030395136777,-14.191045592705168,-4.988072948328267,-45.741455015197566
117,118,23.46,-10.90631746031746,-18.363301587301585,3.6294126984126986,-26.12599841269841
118,119,17.19,-3.0337755102040815,-20.4038820861678,-0.16942403628117916,-26.61491428571429
119,120,-17.41,8.794396666666666,-6.6106,2.5725966666666666,-68.757631
120,121,17.44,13.389246861924688,-4.298790794979079,9.92687029288703,-31.461080334728027
121,122,12.51,6.100265573770491,-6.0441737704918035,10.31548524590164,-58.189692786885246
122,123,18.58,7.210704414587332,-10.850376199616122,-6.4539750479846445,-54.3970424184261
123,124,-17.74,14.825036496350364,-0.29324452554744523,-1.4076788321167881,-48.14463065693431
124,125,-5.8,13.005033333333333,-5.748926666666666,-5.406056666666666,-44.939099
125,126,-9.48,-14.557436708860758,3.091322784810127,-12.173367088607595,-67.10660126582279
126,127,-14.67,-18.988209580838326,-0.538754491017964,-14.846439121756488,-29.363108183632733
127,128,15.89,-14.503140762463342,-10.86007624633431,-11.298287390029325,-36.79889032258064
128,129,13.87,-10.9791341991342,-4.071073593073592,-17.996093073593073,-39.58369437229438
129,130,-8.77,0.641631455399061,4.921598591549296,-15.511769953051642,-70.82733873239438
130,131,-13.22,-6.238859504132232,1.204785123966942,-13.648404958677684,-74.85001322314051
131,132,-10.76,-4.365429657794677,-0.6472015209125476,-19.999338403041826,-44.76244068441065
132,133,-5.19,-4.497864077669902,-12.235084951456312,-12.879691747572814,-35.558032281553395
133,134,17.64,1.0152686980609418,-6.2736703601108035,-22.36497783933518,-33.83374570637119
134,135,11.46,-4.476773722627737,-8.65096715328467,-19.525649635036498,-27.970696350364964
135,136,14.85,6.507148854961832,9.0592213740458,-5.401595419847328,-81.41330916030533
136,137,-0.18,4.164705394190872,9.67960580912863,-11.830207468879667,-57.22238713692946
137,138,13.0,-3.8867844690966713,11.00612995245642,-3.7002393026941363,-153.2910354992076
138,139,16.42,-2.7557002652519893,11.632275862068967,2.5684588859416446,-233.27290716180374
139,140,-6.93,1.5541700507614211,16.84874111675127,-0.3025025380710661,-46.22261243654823
140,141,-15.79,-7.507304761904763,17.51635238095238,-4.242171428571429,-62.41604095238095
141,142,19.58,-7.824928934010152,19.05286040609137,3.4438045685279186,-55.119825888324876
142,143,15.29,-16.267127358490562,21.537382075471704,3.8423584905660375,-29.961755188679245
143,144,-15.9,-15.443229437229439,19.42309523809524,-4.655961038961039,-34.49660259740259
144,145,-6.64,-20.436877118644073,17.945385593220333,0.2552033898305084,-35.15844025423729
145,146,16.06,-7.644454361054766,6.117405679513184,-6.956939148073022,-153.3277190669371
146,147,15.43,-12.271720565149137,9.806918367346938,-10.506720565149138,-83.1017923076923
147,148,14.1,-19.36342958748222,13.073846372688479,-7.858314366998578,-50.32987894736842
148,149,18.18,-23.571799352750812,9.713588996763754,0.3941067961165049,-43.35466634304207
149,150,10.19,-21.044877323420074,5.847758364312268,-7.520137546468401,-52.423682899628254
150,151,6.7,-13.368109144542773,17.761395280235988,12.173640117994099,-33.714832743362834
151,152,6.06,-5.1696260504201685,18.142067226890756,13.415936974789915,-38.59637983193277
152,153,18.46,-0.11862717770034831,13.808829268292683,20.305996515679443,-30.534680836236934
153,154,17.34,-6.31013058419244,8.148006872852232,22.842670103092782,-39.70220103092784
154,155,-11.03,-12.769523227383862,12.677256723716383,19.985176039119803,-33.57455305623472
155,156,13.78,-24.965713450292398,10.189637426900585,8.422366471734893,-45.94652066276803
156,157,15.14,-28.143518005540166,15.896127423822715,13.612146814404433,-17.94823324099723
157,158,16.07,-20.620347972972972,17.117469594594596,10.089013513513514,-30.244065540540543
158,159,8.33,-24.275767527675278,-5.108911439114391,13.702667896678967,-48.02720996309963
159,160,14.74,-27.95106075949367,0.34863544303797467,15.597759493670885,-32.68151721518987
160,161,4.22,-17.740552204176332,3.127705336426914,20.853925754060324,-52.961235962877026
161,162,-10.96,-20.029470149253733,10.791936567164177,18.287220149253734,-42.22331828358209
162,163,15.73,-27.428494274809157,6.2013377862595425,19.875022900763355,-24.5718893129771
163,164,16.89,-25.753664783427496,-10.94580790960452,4.897333333333332,-32.30138531073446
164,165,-10.14,-26.152628301886793,-4.26251320754717,4.19513396226415,-74.46795113207547
165,166,14.77,-24.250533653846155,1.0387067307692308,-2.8113028846153845,-71.16996490384615
166,167,13.94,-27.450805882352935,1.3202000000000003,4.470588235294118,-41.423550000000006
167,168,14.08,-22.79558596491228,-8.558105263157895,-9.058287719298246,-29.621413333333336
168,169,15.02,-25.451695402298853,-6.323293103448277,-4.907135057471264,-28.776669540229882
169,170,-12.95,-17.33956087824351,-10.913954091816366,4.702229540918164,-83.34019620758484
170,171,2.77,-16.644904328018225,-11.684277904328018,-2.2345284738041,-53.15540683371299
171,172,23.01,-13.592486988847584,-5.362293680297397,21.016486988847582,-48.38513531598513
172,173,14.57,-10.492634651600753,-0.34522975517890786,24.51022033898305,-35.84707306967985
173,174,7.3,-0.892993166287016,-4.565829157175399,20.623407744874715,-45.056035763097945
174,175,-17.81,-4.896109890109891,-9.727362637362639,20.187532967032965,-33.56012582417583
175,176,18.59,-6.841438202247191,-15.369134831460675,18.873636704119853,-28.38759176029962
176,177,13.7,-2.8968481848184817,-18.67676567656766,9.357455445544556,-26.39711353135314
177,178,14.4,-1.8103224043715846,-11.957811475409839,8.5106912568306,-85.93110409836065
178,179,14.71,0.12118685121107267,-12.333927335640139,16.244335640138406,-31.974414186851213
179,180,-2.18,-19.289598901098902,-11.524846153846154,12.772576923076922,-37.220279670329674
180,181,11.88,-18.341679999999997,-9.021541818181818,19.256578181818178,-33.94142545454545
181,182,12.63,-14.687332167832166,-15.741660839160838,19.050220279720282,-18.124487762237763
182,183,-16.32,-11.039834845735026,-17.71778402903811,13.140736842105264,-31.36995117967332
183,184,-16.85,-9.596254237288136,-4.45883615819209,-56.93985875706215,-9.254951129943503
184,185,-14.03,-9.386633802816903,-7.87142957746479,-62.926319248826296,-7.718700469483569
185,186,-13.21,-5.137907235621522,-17.473380333951763,-49.01805194805195,-12.462693692022265
186,187,-14.47,-6.474922566371681,-10.614769911504425,-50.17896017699115,-11.844884292035399
187,188,12.65,-7.418176470588237,-12.999609477124183,-56.31859640522876,-16.664029738562093
188,189,14.38,-18.844980910425843,12.925397944199705,-36.27647870778267,-16.221884140969163
189,190,13.33,-15.649597633136095,10.293524654832346,-27.79968244575937,-24.685286587771202
190,191,-20.21,-23.90211320754717,7.7927421383647815,-32.316987421383644,-23.734528301886794
191,192,12.38,-18.49412849162011,4.322042830540037,-32.22432029795158,-21.13545996275605
192,193,13.83,-21.842867924528303,19.53133423180593,-29.356633423180597,-17.18177358490566
193,194,19.48,-27.312719072164946,15.370505154639174,-32.69130154639175,-15.72197551546392
194,195,-12.05,-26.066926900584793,11.606897660818714,-26.202666666666662,-21.181891228070175
195,196,15.51,-34.91314238410596,15.811559602649007,-26.990990066225162,-14.721996026490066
196,197,20.16,-34.776623003194885,23.032568690095847,-28.76986900958466,-14.897706709265178
197,198,14.33,-28.496548463356973,18.495867612293146,-23.20760047281324,-24.267394562647755
198,199,14.9,-28.575930390492363,23.332550084889647,-27.462147707979625,-15.445621901528016
199,200,-12.77,-1.182928716904277,15.712244399185336,-34.97153971486761,-17.06215417515275
200,201,-18.98,4.70429147982063,22.513094170403587,-29.986430493273545,-13.074590582959642
201,202,-12.65,-1.6826354009077156,23.82404841149773,-36.580204236006054,-9.55205945537065
202,203,17.8,-2.0559163090128756,6.644935622317597,-41.74445922746781,-13.764676824034334
203,204,-11.24,1.5255116666666666,5.649591666666667,-36.77349666666667,-17.00679666666667
204,205,19.31,-10.042878345498783,4.077386861313869,-31.316068126520683,-27.751542822384426
205,206,13.6,-11.450994987468672,8.021731829573936,-37.86531829573934,-21.24129649122807
206,207,17.33,-11.015269807280514,0.3240706638115632,-40.99460385438973,-16.494421627408993
207,208,12.44,-3.461646322378717,-2.1042206572769953,-35.06510641627543,-16.83779906103286
208,209,-18.95,18.857271966527193,-30.815937238493724,-5.737878661087867,-11.039543096234311
209,210,14.09,13.785663900414939,-34.177174273858924,-7.458213692946057,-12.345652489626557
210,211,15.59,26.172861728395063,-30.655328395061726,-6.847950617283951,-9.340859506172839
211,212,15.56,36.258667546174145,-21.85830079155673,-8.521849604221636,-11.883267546174142
212,213,-12.25,31.07461553398058,-26.08030873786408,-8.446467961165048,-10.990285825242719
213,214,-13.2,-4.427641943734016,-33.33805115089514,-31.201079283887466,-7.796208695652173
214,215,-15.38,-10.181538175046553,-28.383677839851025,-32.67935195530726,-8.0809947858473
215,216,-14.13,-9.023588688946015,-23.58066580976864,-45.107305912596395,-15.827880462724936
216,217,11.55,-8.837608863198458,-28.47956069364162,-39.64551252408477,-13.619551252408478
217,218,14.43,8.860983720930232,-30.92598139534884,-13.062597674418603,-12.888021395348837
218,219,14.17,0.7539010989010989,-32.262485347985354,-12.242613553113552,-11.628049633699634
219,220,15.18,-5.166682134570766,-32.33186542923434,-23.38410672853828,-12.960890023201856
220,221,13.86,2.0678214285714285,-32.56418571428571,-20.29339107142857,-9.762318749999999
